Serial = 1
Static gain = 1
Magnitude unit = mV/nT
Phase unit = radians
Chopper = True

CALIBRATION DATA
+1.0000e-07  +2.0027e-05  +1.5447e+00
+1.0000e-01  +2.0027e+01  +1.5447e+00
+1.2589e-01  +2.5209e+01  +1.5385e+00
+1.5849e-01  +3.1709e+01  +1.5305e+00
+1.9953e-01  +3.9890e+01  +1.5206e+00
+2.5119e-01  +5.0178e+01  +1.5085e+00
+3.1623e-01  +6.3085e+01  +1.4926e+00
+3.9811e-01  +7.9339e+01  +1.4730e+00
+5.0119e-01  +9.9687e+01  +1.4485e+00
+6.3095e-01  +1.2493e+02  +1.4150e+00
+7.9430e-01  +1.5632e+02  +1.3797e+00
+1.0000e+00  +1.9432e+02  +1.3342e+00
+1.2589e+00  +2.4148e+02  +1.2736e+00
+1.5849e+00  +2.9550e+02  +1.2074e+00
+1.9952e+00  +3.5955e+02  +1.1225e+00
+2.5119e+00  +4.2974e+02  +1.0260e+00
+3.1623e+00  +5.0268e+02  +9.1953e-01
+3.9810e+00  +5.7514e+02  +8.0774e-01
+5.0118e+00  +6.4001e+02  +6.9427e-01
+6.3095e+00  +6.9417e+02  +5.8472e-01
+7.9430e+00  +7.3468e+02  +4.8017e-01
+1.0000e+01  +7.6696e+02  +3.9387e-01
+1.2589e+01  +7.8978e+02  +3.1529e-01
+1.5849e+01  +8.0426e+02  +2.5536e-01
+1.9952e+01  +8.1197e+02  +2.0302e-01
+2.5119e+01  +8.2192e+02  +1.5910e-01
+3.1622e+01  +8.2581e+02  +1.2467e-01
+3.9810e+01  +8.2709e+02  +9.8901e-02
+5.0118e+01  +8.2845e+02  +7.6053e-02
+6.3095e+01  +8.3273e+02  +5.7020e-02
+7.9430e+01  +8.3108e+02  +4.1099e-02
+1.0000e+02  +8.3153e+02  +2.7637e-02
+1.2589e+02  +8.3048e+02  +1.5727e-02
+1.5849e+02  +8.3275e+02  +1.0209e-03
+1.9952e+02  +8.3018e+02  -8.8396e-03
+2.5118e+02  +8.3176e+02  -2.1763e-02
+3.1622e+02  +8.2954e+02  -3.3097e-02
+3.9810e+02  +8.2936e+02  -4.7482e-02
+5.0118e+02  +8.3005e+02  -6.4413e-02
+6.3094e+02  +8.2855e+02  -8.3935e-02
+7.9430e+02  +8.2766e+02  -1.0827e-01
+1.0000e+03  +8.2600e+02  -1.3938e-01
+1.2589e+03  +8.2319e+02  -1.7806e-01
+1.5849e+03  +8.1916e+02  -2.2632e-01
+1.9952e+03  +8.1721e+02  -2.8595e-01
+2.5118e+03  +8.0192e+02  -3.7495e-01
+3.1622e+03  +7.7407e+02  -4.7415e-01
+3.9810e+03  +7.2331e+02  -5.9798e-01
+5.0117e+03  +6.3188e+02  -6.9000e-01
+6.3094e+03  +5.9074e+02  -7.0379e-01
+7.9430e+03  +5.8175e+02  -8.1249e-01
+9.9995e+03  +5.4907e+02  -9.7723e-01
+1.0000e+04  +5.4913e+02  -9.7721e-01
+1.0000e+08  +5.4913e+06  -9.7721e-01
