Serial = 307
Sensor = 006_HF
Static gain = 800.0
Magnitude unit = mV/nT
Phase unit = radians
Chopper = False

CALIBRATION DATA
+1.0000e-05  +2.5000e-06  +1.5708e+00
+1.0000e-04  +2.5000e-05  +1.5708e+00
+1.0000e-03  +2.5000e-04  +1.5705e+00
+1.0000e-02  +2.5000e-03  +1.5683e+00
+2.0000e-02  +4.9999e-03  +1.5658e+00
+3.0000e-02  +7.4998e-03  +1.5633e+00
+4.0000e-02  +9.9995e-03  +1.5608e+00
+5.0000e-02  +1.2499e-02  +1.5583e+00
+7.0000e-02  +1.7497e-02  +1.5533e+00
+1.0000e-01  +2.4959e-02  +1.5452e+00
+1.4678e-01  +3.6629e-02  +1.5339e+00
+2.1544e-01  +5.3666e-02  +1.5173e+00
+3.1623e-01  +7.8627e-02  +1.4931e+00
+4.6416e-01  +1.1493e-01  +1.4576e+00
+6.8130e-01  +1.6773e-01  +1.4051e+00
+1.0000e+00  +2.4255e-01  +1.3394e+00
+1.4678e+00  +3.4438e-01  +1.2296e+00
+2.1544e+00  +4.7639e-01  +1.0904e+00
+3.1623e+00  +6.2598e-01  +9.1815e-01
+4.6416e+00  +7.7045e-01  +7.2902e-01
+6.8130e+00  +8.8331e-01  +5.4810e-01
+1.0000e+01  +9.5500e-01  +3.9286e-01
+1.4678e+01  +9.9587e-01  +2.7489e-01
+2.1545e+01  +1.0154e+00  +1.8837e-01
+3.1623e+01  +1.0258e+00  +1.2735e-01
+4.6416e+01  +1.0307e+00  +8.4177e-02
+6.8130e+01  +1.0277e+00  +4.5146e-02
+1.0000e+02  +1.0326e+00  +2.8629e-02
+1.4678e+02  +1.0349e+00  +7.9399e-03
+2.1545e+02  +1.0345e+00  -7.9172e-03
+3.1623e+02  +1.0338e+00  -2.6454e-02
+4.6416e+02  +1.0341e+00  -4.8852e-02
+6.8130e+02  +1.0352e+00  -7.9795e-02
+1.0000e+03  +1.0365e+00  -1.2133e-01
+1.4678e+03  +1.0354e+00  -1.8783e-01
+2.1545e+03  +1.0201e+00  -2.8487e-01
+3.1623e+03  +9.9703e-01  -4.2295e-01
+4.6417e+03  +9.0061e-01  -6.2766e-01
+6.8130e+03  +7.7489e-01  -7.4444e-01
+1.0000e+04  +7.1404e-01  -9.7162e-01
