Serial = 1
Static gain = 1
Magnitude unit = mV/nT
Phase unit = radians
Chopper = True

CALIBRATION DATA
+1.0000e-07  +2.0043e-05  +1.5450e+00
+1.0000e-01  +2.0043e+01  +1.5450e+00
+1.2589e-01  +2.5221e+01  +1.5387e+00
+1.5849e-01  +3.1725e+01  +1.5301e+00
+1.9953e-01  +3.9928e+01  +1.5205e+00
+2.5119e-01  +5.0278e+01  +1.5080e+00
+3.1623e-01  +6.3306e+01  +1.4932e+00
+3.9811e-01  +7.9411e+01  +1.4725e+00
+5.0119e-01  +9.9937e+01  +1.4472e+00
+6.3095e-01  +1.2524e+02  +1.4141e+00
+7.9430e-01  +1.5639e+02  +1.3780e+00
+1.0000e+00  +1.9510e+02  +1.3309e+00
+1.2589e+00  +2.4141e+02  +1.2726e+00
+1.5849e+00  +2.9655e+02  +1.2035e+00
+1.9952e+00  +3.5991e+02  +1.1184e+00
+2.5119e+00  +4.2959e+02  +1.0232e+00
+3.1623e+00  +5.0202e+02  +9.1492e-01
+3.9810e+00  +5.7521e+02  +8.0461e-01
+5.0118e+00  +6.3875e+02  +6.8733e-01
+6.3095e+00  +6.9240e+02  +5.7636e-01
+7.9430e+00  +7.3424e+02  +4.7963e-01
+1.0000e+01  +7.6461e+02  +3.9115e-01
+1.2589e+01  +7.8703e+02  +3.1688e-01
+1.5849e+01  +8.0052e+02  +2.5347e-01
+1.9952e+01  +8.1005e+02  +2.0139e-01
+2.5119e+01  +8.1496e+02  +1.5916e-01
+3.1622e+01  +8.2088e+02  +1.2390e-01
+3.9810e+01  +8.2072e+02  +9.6044e-02
+5.0118e+01  +8.2294e+02  +7.7617e-02
+6.3095e+01  +8.2945e+02  +5.7756e-02
+7.9430e+01  +8.2599e+02  +4.1610e-02
+1.0000e+02  +8.2636e+02  +2.7243e-02
+1.2589e+02  +8.2586e+02  +1.4652e-02
+1.5849e+02  +8.2941e+02  +4.0984e-03
+1.9952e+02  +8.2665e+02  -8.1966e-03
+2.5118e+02  +8.2681e+02  -1.8710e-02
+3.1622e+02  +8.2603e+02  -3.1372e-02
+3.9810e+02  +8.2598e+02  -4.5185e-02
+5.0118e+02  +8.2559e+02  -6.1907e-02
+6.3094e+02  +8.2445e+02  -8.1852e-02
+7.9430e+02  +8.2289e+02  -1.0585e-01
+1.0000e+03  +8.2162e+02  -1.3576e-01
+1.2589e+03  +8.1924e+02  -1.7095e-01
+1.5849e+03  +8.1581e+02  -2.1714e-01
+1.9952e+03  +8.1033e+02  -2.7342e-01
+2.5118e+03  +8.0023e+02  -3.5100e-01
+3.1622e+03  +7.7844e+02  -4.4492e-01
+3.9810e+03  +7.4190e+02  -5.6063e-01
+5.0117e+03  +6.7332e+02  -6.8263e-01
+6.3094e+03  +6.0084e+02  -7.4536e-01
+7.9430e+03  +5.7364e+02  -8.1978e-01
+9.9995e+03  +5.4493e+02  -9.5984e-01
+1.0000e+04  +5.4500e+02  -9.5972e-01
+1.0000e+08  +5.4500e+06  -9.5972e-01
